temperature,energy,magnetisation,susceptibility,specific_heat
1, -0.998596, 0.999286, 0.0015507, 0.00582361
1.0202, -0.998346, 0.999156, 0.00183519, 0.00668601
1.0404, -0.998049, 0.999004, 0.00212415, 0.00757954
1.06061, -0.997775, 0.998861, 0.00234077, 0.00814436
1.08081, -0.997415, 0.998673, 0.00269588, 0.00907474
1.10101, -0.997027, 0.998469, 0.00316271, 0.0103897
1.12121, -0.996532, 0.998211, 0.00363927, 0.0115571
1.14141, -0.996059, 0.997962, 0.0041991, 0.0130052
1.16162, -0.995524, 0.997679, 0.00461511, 0.013857
1.18182, -0.994899, 0.997339, 0.00546659, 0.0160963
1.20202, -0.994226, 0.99698, 0.00597205, 0.0169866
1.22222, -0.993524, 0.996607, 0.00645232, 0.0175536
1.24242, -0.992762, 0.996202, 0.00725023, 0.0191167
1.26263, -0.991919, 0.995745, 0.0080663, 0.020991
1.28283, -0.990961, 0.995224, 0.00904591, 0.0227418
1.30303, -0.99002, 0.994709, 0.0108934, 0.0263131
1.32323, -0.988883, 0.994087, 0.0111349, 0.0266282
1.34343, -0.987687, 0.993421, 0.0126212, 0.0294974
1.36364, -0.986461, 0.992743, 0.014018, 0.0316506
1.38384, -0.98528, 0.99209, 0.015989, 0.0353745
1.40404, -0.983874, 0.9913, 0.0168759, 0.0358165
1.42424, -0.982312, 0.990415, 0.0188955, 0.0384087
1.44444, -0.980493, 0.989348, 0.0219584, 0.0435437
1.46465, -0.978826, 0.988416, 0.0238895, 0.0463175
1.48485, -0.976933, 0.987297, 0.0253064, 0.0474733
1.50505, -0.975062, 0.986194, 0.027929, 0.0509961
1.52525, -0.972979, 0.98497, 0.0310862, 0.0540437
1.54545, -0.970772, 0.983643, 0.0341644, 0.05742
1.56566, -0.968325, 0.982179, 0.0370967, 0.0599044
1.58586, -0.965942, 0.980719, 0.0417861, 0.0650659
1.60606, -0.963246, 0.979084, 0.0449018, 0.0683092
1.62626, -0.960707, 0.977503, 0.0479212, 0.0698522
1.64646, -0.95772, 0.975606, 0.054206, 0.0753795
1.66667, -0.954489, 0.973585, 0.0606487, 0.0796168
1.68687, -0.951397, 0.971625, 0.0630701, 0.0804532
1.70707, -0.947782, 0.969257, 0.0681721, 0.084546
1.72727, -0.944289, 0.966873, 0.0770119, 0.0905988
1.74747, -0.940382, 0.964278, 0.0875368, 0.0965847
1.76768, -0.93625, 0.961303, 0.111682, 0.105945
1.78788, -0.932308, 0.958617, 0.113698, 0.10908
1.80808, -0.927822, 0.955661, 0.116241, 0.1086
1.82828, -0.923353, 0.952277, 0.135572, 0.119874
1.84848, -0.918774, 0.949019, 0.149338, 0.127921
1.86869, -0.912799, 0.94464, 0.155034, 0.124033
1.88889, -0.90817, 0.941, 0.182355, 0.137186
1.90909, -0.902205, 0.936271, 0.211115, 0.144483
1.92929, -0.896218, 0.931592, 0.23052, 0.150954
1.94949, -0.890359, 0.926838, 0.277666, 0.165419
1.9697, -0.883798, 0.921298, 0.285884, 0.161911
1.9899, -0.875727, 0.913497, 0.376054, 0.171533
2.0101, -0.869576, 0.908696, 0.387977, 0.180352
2.0303, -0.86167, 0.900865, 0.447567, 0.185613
2.05051, -0.853113, 0.892892, 0.527761, 0.200571
2.07071, -0.844582, 0.884254, 0.700298, 0.217402
2.09091, -0.833559, 0.870126, 1.12363, 0.247467
2.11111, -0.825124, 0.86138, 1.22924, 0.246943
2.13131, -0.815585, 0.850009, 1.30946, 0.26658
2.15152, -0.804668, 0.836962, 1.3433, 0.274009
2.17172, -0.790802, 0.812534, 3.33583, 0.316809
2.19192, -0.779631, 0.800924, 2.89332, 0.341161
2.21212, -0.763494, 0.768969, 4.64484, 0.363883
2.23232, -0.742515, 0.677201, 52.1253, 0.552786
2.25253, -0.727118, 0.665728, 20.9193, 0.494788
2.27273, -0.714989, 0.650286, 12.6523, 0.424738
2.29293, -0.695387, 0.586821, 20.4284, 0.471125
2.31313, -0.66179, -0.0486157, 236.178, 0.407796
2.33333, -0.646778, 0.17501, 123.101, 0.399236
2.35354, -0.631948, 0.0675151, 145.302, 0.329887
2.37374, -0.61741, 0.100262, 80.0929, 0.285748
2.39394, -0.605413, -0.105668, 39.0243, 0.276499
2.41414, -0.592683, -0.0110758, 37.2524, 0.268286
2.43434, -0.582966, -0.0216851, 41.4438, 0.235296
2.45455, -0.57408, 0.0268706, 35.2466, 0.242858
2.47475, -0.56521, 0.0349006, 33.293, 0.217007
2.49495, -0.555592, 0.0212817, 26.6905, 0.207952
2.51515, -0.547354, -0.000754557, 21.3243, 0.202364
2.53535, -0.538178, 0.0112441, 20.0071, 0.214499
2.55556, -0.530681, -0.0239473, 17.2036, 0.18516
2.57576, -0.523603, -0.000617839, 14.7787, 0.184302
2.59596, -0.516202, -0.00157731, 15.8764, 0.175386
2.61616, -0.508462, -0.00749951, 13.4323, 0.173912
2.63636, -0.501626, -0.00413363, 11.5643, 0.165199
2.65657, -0.494825, 0.00478809, 10.7386, 0.155708
2.67677, -0.488581, 0.00525, 9.3789, 0.142204
2.69697, -0.482802, 0.00275423, 9.18825, 0.154734
2.71717, -0.476667, -0.00726221, 8.55034, 0.145129
2.73737, -0.47105, -0.00199056, 7.95834, 0.136865
2.75758, -0.465854, 0.0018903, 7.29392, 0.140053
2.77778, -0.45901, 0.00049056, 6.72527, 0.128322
2.79798, -0.453858, 0.00727246, 7.0549, 0.13598
2.81818, -0.449944, -0.000213867, 6.36461, 0.125514
2.83838, -0.444992, -0.00187679, 5.68249, 0.124264
2.85859, -0.440927, 0.00114242, 6.15134, 0.120422
2.87879, -0.43549, 0.0106494, 4.95507, 0.119214
2.89899, -0.429843, -0.000904948, 4.65251, 0.11478
2.91919, -0.425134, 0.000339681, 4.54745, 0.111495
2.93939, -0.421102, 0.00355257, 4.1695, 0.105361
2.9596, -0.417173, -0.00240609, 4.3265, 0.106214
2.9798, -0.413157, -0.00192464, 4.23431, 0.101524
3, -0.408819, 0.00180355, 3.61026, 0.0974768
